#Spectra: 1
Emin______Emax      -9.594160312003609E+00  1.040583968799639E+01
EminPole__EmaxPole   6.228640197860207E-01  9.034264168969282E+00
dE________Gamma      2.000000000000000E-02  1.000000000000000E-01
Energy               Re[0]                  Im[0]                
-9.594160312004E+00  8.256001686112570E-04  7.884432168205780E-05
-9.574160312004E+00  8.435438382246576E-04  7.919750398117268E-05
-9.554160312004E+00  8.614628715842023E-04  7.955219473419052E-05
-9.534160312004E+00  8.793187403626393E-04  7.990823533006980E-05
-9.514160312004E+00  8.970742303137949E-04  8.026547274864895E-05
-9.494160312004E+00  9.146939280230744E-04  8.062376171661989E-05
-9.474160312004E+00  9.321446456595726E-04  8.098296659406659E-05
-9.454160312004E+00  9.493957726297617E-04  8.134296294215846E-05
-9.434160312004E+00  9.664195472675098E-04  8.170363874116894E-05
-9.414160312004E+00  9.831912459784173E-04  8.206489524681831E-05
-9.394160312004E+00  9.996892912505786E-04  8.242664749052376E-05
-9.374160312004E+00  1.015895283381364E-03  8.278882444430492E-05
-9.354160312004E+00  1.031793963473480E-03  8.315136888304957E-05
-9.334160312004E+00  1.047373117141095E-03  8.351423698522069E-05
-9.314160312004E+00  1.062623429441555E-03  8.387739771789590E-05
-9.294160312004E+00  1.077538301883146E-03  8.424083205359460E-05
-9.274160312004E+00  1.092113642073515E-03  8.460453206516041E-05
-9.254160312004E+00  1.106347635810471E-03  8.496849994169543E-05
-9.234160312004E+00  1.120240510325400E-03  8.533274696380207E-05
-9.214160312004E+00  1.133794296108269E-03  8.569729247080509E-05
-9.194160312004E+00  1.147012593389546E-03  8.606216284672481E-05
-9.174160312004E+00  1.159900348023848E-03  8.642739054594480E-05
-9.154160312004E+00  1.172463640278430E-03  8.679301317408434E-05
-9.134160312004E+00  1.184709488922512E-03  8.715907263473773E-05
-9.114160312004E+00  1.196645672062996E-03  8.752561434856213E-05
-9.094160312004E+00  1.208280565386427E-03  8.789268654775019E-05
-9.074160312004E+00  1.219622997840629E-03  8.826033964616528E-05
-9.054160312004E+00  1.230682124310589E-03  8.862862568330759E-05
-9.034160312004E+00  1.241467314493805E-03  8.899759783873766E-05
-9.014160312004E+00  1.251988056941786E-03  8.936731001251880E-05
-8.994160312004E+00  1.262253877086970E-03  8.973781646659825E-05
-8.974160312004E+00  1.272274267999522E-03  9.010917152168793E-05
-8.954160312004E+00  1.282058632600067E-03  9.048142930413445E-05
-8.934160312004E+00  1.291616236077675E-03  9.085464353734591E-05
-8.914160312004E+00  1.300956167315375E-03  9.122886737257887E-05
-8.894160312004E+00  1.310087308198687E-03  9.160415325419147E-05
-8.874160312004E+00  1.319018309767401E-03  9.198055281484651E-05
-8.854160312004E+00  1.327757574262515E-03  9.235811679652871E-05
-8.834160312004E+00  1.336313242212435E-03  9.273689499365878E-05
-8.814160312004E+00  1.344693183794035E-03  9.311693621496342E-05
-8.794160312004E+00  1.352904993791096E-03  9.349828826115634E-05
-8.774160312004E+00  1.360955989554324E-03  9.388099791582609E-05
-8.754160312004E+00  1.368853211442591E-03  9.426511094726270E-05
-8.734160312004E+00  1.376603425293695E-03  9.465067211925292E-05
-8.714160312004E+00  1.384213126534937E-03  9.503772520913804E-05
-8.694160312004E+00  1.391688545599123E-03  9.542631303167716E-05
-8.674160312004E+00  1.399035654360652E-03  9.581647746746837E-05
-8.654160312004E+00  1.406260173349629E-03  9.620825949486644E-05
-8.634160312004E+00  1.413367579539669E-03  9.660169922450739E-05
-8.614160312004E+00  1.420363114538095E-03  9.699683593568423E-05
-8.594160312004E+00  1.427251793035629E-03  9.739370811395366E-05
-8.574160312004E+00  1.434038411397323E-03  9.779235348945115E-05
-8.554160312004E+00  1.440727556297703E-03  9.819280907548918E-05
-8.534160312004E+00  1.447323613320885E-03  9.859511120709250E-05
-8.514160312004E+00  1.453830775462137E-03  9.899929557918751E-05
-8.494160312004E+00  1.460253051480074E-03  9.940539728422460E-05
-8.474160312004E+00  1.466594274059939E-03  9.981345084905689E-05
-8.454160312004E+00  1.472858107757576E-03  1.002234902709429E-04
-8.434160312004E+00  1.479048056701438E-03  1.006355490525668E-04
-8.414160312004E+00  1.485167472036506E-03  1.010496602360153E-04
-8.394160312004E+00  1.491219559099363E-03  1.014658564356470E-04
-8.374160312004E+00  1.497207384317957E-03  1.018841698698381E-04
-8.354160312004E+00  1.503133881833358E-03  1.023046323915844E-04
-8.334160312004E+00  1.509001859843685E-03  1.027272755179607E-04
-8.314160312004E+00  1.514814006672653E-03  1.031521304584443E-04
-8.294160312004E+00  1.520572896567236E-03  1.035792281421274E-04
-8.274160312004E+00  1.526280995230246E-03  1.040085992438367E-04
-8.254160312004E+00  1.531940665094860E-03  1.044402742091899E-04
-8.234160312004E+00  1.537554170348837E-03  1.048742832786300E-04
-8.214160312004E+00  1.543123681717042E-03  1.053106565104599E-04
-8.194160312004E+00  1.548651281010903E-03  1.057494238029307E-04
-8.174160312004E+00  1.554138965454068E-03  1.061906149154110E-04
-8.154160312004E+00  1.559588651793427E-03  1.066342594886811E-04
-8.134160312004E+00  1.565002180204658E-03  1.070803870643954E-04
-8.114160312004E+00  1.570381318001601E-03  1.075290271037440E-04
-8.094160312004E+00  1.575727763158359E-03  1.079802090053628E-04
-8.074160312004E+00  1.581043147652986E-03  1.084339621225219E-04
-8.054160312004E+00  1.586329040641434E-03  1.088903157796352E-04
-8.034160312004E+00  1.591586951469979E-03  1.093492992881246E-04
-8.014160312004E+00  1.596818332534271E-03  1.098109419616746E-04
-7.994160312004E+00  1.602024581992732E-03  1.102752731309119E-04
-7.974160312004E+00  1.607207046341730E-03  1.107423221575411E-04
-7.954160312004E+00  1.612367022859708E-03  1.112121184479708E-04
-7.934160312004E+00  1.617505761927056E-03  1.116846914664547E-04
-7.914160312004E+00  1.622624469228227E-03  1.121600707477832E-04
-7.894160312004E+00  1.627724307842370E-03  1.126382859095464E-04
-7.874160312004E+00  1.632806400228276E-03  1.131193666639986E-04
-7.854160312004E+00  1.637871830109374E-03  1.136033428295496E-04
-7.834160312004E+00  1.642921644263979E-03  1.140902443419020E-04
-7.814160312004E+00  1.647956854225985E-03  1.145801012648614E-04
-7.794160312004E+00  1.652978437900686E-03  1.150729438008424E-04
-7.774160312004E+00  1.657987341100301E-03  1.155688023010820E-04
-7.754160312004E+00  1.662984479003561E-03  1.160677072755916E-04
-7.734160312004E+00  1.667970737543344E-03  1.165696894028566E-04
-7.714160312004E+00  1.672946974726255E-03  1.170747795393064E-04
-7.694160312004E+00  1.677914021887786E-03  1.175830087285689E-04
-7.674160312004E+00  1.682872684886503E-03  1.180944082105256E-04
-7.654160312004E+00  1.687823745240515E-03  1.186090094301847E-04
-7.634160312004E+00  1.692767961209266E-03  1.191268440463826E-04
-7.614160312004E+00  1.697706068823618E-03  1.196479439403300E-04
-7.594160312004E+00  1.702638782866895E-03  1.201723412240143E-04
-7.574160312004E+00  1.707566797809575E-03  1.207000682484727E-04
-7.554160312004E+00  1.712490788699969E-03  1.212311576119441E-04
-7.534160312004E+00  1.717411412013278E-03  1.217656421679133E-04
-7.514160312004E+00  1.722329306461201E-03  1.223035550330590E-04
-7.494160312004E+00  1.727245093764120E-03  1.228449295951118E-04
-7.474160312004E+00  1.732159379387856E-03  1.233897995206370E-04
-7.454160312004E+00  1.737072753246813E-03  1.239381987627465E-04
-7.434160312004E+00  1.741985790375262E-03  1.244901615687542E-04
-7.414160312004E+00  1.746899051568373E-03  1.250457224877747E-04
-7.394160312004E+00  1.751813083994633E-03  1.256049163782845E-04
-7.374160312004E+00  1.756728421780988E-03  1.261677784156422E-04
-7.354160312004E+00  1.761645586572238E-03  1.267343440995856E-04
-7.334160312004E+00  1.766565088065890E-03  1.273046492617046E-04
-7.314160312004E+00  1.771487424523768E-03  1.278787300728982E-04
-7.294160312004E+00  1.776413083261494E-03  1.284566230508285E-04
-7.274160312004E+00  1.781342541117056E-03  1.290383650673707E-04
-7.254160312004E+00  1.786276264899372E-03  1.296239933560666E-04
-7.234160312004E+00  1.791214711817982E-03  1.302135455195921E-04
-7.214160312004E+00  1.796158329894666E-03  1.308070595372384E-04
-7.194160312004E+00  1.801107558358025E-03  1.314045737724158E-04
-7.174160312004E+00  1.806062828021767E-03  1.320061269801858E-04
-7.154160312004E+00  1.811024561647478E-03  1.326117583148254E-04
-7.134160312004E+00  1.815993174292794E-03  1.332215073374293E-04
-7.114160312004E+00  1.820969073645431E-03  1.338354140235537E-04
-7.094160312004E+00  1.825952660344003E-03  1.344535187709081E-04
-7.074160312004E+00  1.830944328286132E-03  1.350758624071008E-04
-7.054160312004E+00  1.835944464924466E-03  1.357024861974404E-04
-7.034160312004E+00  1.840953451551248E-03  1.363334318527948E-04
-7.014160312004E+00  1.845971663571926E-03  1.369687415375264E-04
-6.994160312004E+00  1.850999470768331E-03  1.376084578774847E-04
-6.974160312004E+00  1.856037237551956E-03  1.382526239680827E-04
-6.954160312004E+00  1.861085323207770E-03  1.389012833824500E-04
-6.934160312004E+00  1.866144082129019E-03  1.395544801796672E-04
-6.914160312004E+00  1.871213864043424E-03  1.402122589130882E-04
-6.894160312004E+00  1.876295014231238E-03  1.408746646387570E-04
-6.874160312004E+00  1.881387873735457E-03  1.415417429239140E-04
-6.854160312004E+00  1.886492779564601E-03  1.422135398556097E-04
-6.834160312004E+00  1.891610064888421E-03  1.428901020494137E-04
-6.814160312004E+00  1.896740059226824E-03  1.435714766582404E-04
-6.794160312004E+00  1.901883088632336E-03  1.442577113812769E-04
-6.774160312004E+00  1.907039475866443E-03  1.449488544730350E-04
-6.754160312004E+00  1.912209540570033E-03  1.456449547525189E-04
-6.734160312004E+00  1.917393599428222E-03  1.463460616125161E-04
-6.714160312004E+00  1.922591966329879E-03  1.470522250290214E-04
-6.694160312004E+00  1.927804952522045E-03  1.477634955707844E-04
-6.674160312004E+00  1.933032866759418E-03  1.484799244090041E-04
-6.654160312004E+00  1.938276015449291E-03  1.492015633271518E-04
-6.634160312004E+00  1.943534702792011E-03  1.499284647309483E-04
-6.614160312004E+00  1.948809230917168E-03  1.506606816584848E-04
-6.594160312004E+00  1.954099900015871E-03  1.513982677904981E-04
-6.574160312004E+00  1.959407008469005E-03  1.521412774608014E-04
-6.554160312004E+00  1.964730852971998E-03  1.528897656668776E-04
-6.534160312004E+00  1.970071728655922E-03  1.536437880806409E-04
-6.514160312004E+00  1.975429929205331E-03  1.544034010593618E-04
-6.494160312004E+00  1.980805746972934E-03  1.551686616567743E-04
-6.474160312004E+00  1.986199473091122E-03  1.559396276343570E-04
-6.454160312004E+00  1.991611397580731E-03  1.567163574728002E-04
-6.434160312004E+00  1.997041809456884E-03  1.574989103836622E-04
-6.414160312004E+00  2.002490996832349E-03  1.582873463212156E-04
-6.394160312004E+00  2.007959247018245E-03  1.590817259944935E-04
-6.374160312004E+00  2.013446846622447E-03  1.598821108795415E-04
-6.354160312004E+00  2.018954081645685E-03  1.606885632318699E-04
-6.334160312004E+00  2.024481237575415E-03  1.615011460991271E-04
-6.314160312004E+00  2.030028599477711E-03  1.623199233339853E-04
-6.294160312004E+00  2.035596452087140E-03  1.631449596072517E-04
-6.274160312004E+00  2.041185079894728E-03  1.639763204212093E-04
-6.254160312004E+00  2.046794767234211E-03  1.648140721231881E-04
-6.234160312004E+00  2.052425798366592E-03  1.656582819193793E-04
-6.214160312004E+00  2.058078457563015E-03  1.665090178888955E-04
-6.194160312004E+00  2.063753029186228E-03  1.673663489980764E-04
-6.174160312004E+00  2.069449797770509E-03  1.682303451150581E-04
-6.154160312004E+00  2.075169048100263E-03  1.691010770246022E-04
-6.134160312004E+00  2.080911065287321E-03  1.699786164431916E-04
-6.114160312004E+00  2.086676134847048E-03  1.708630360344090E-04
-6.094160312004E+00  2.092464542773215E-03  1.717544094245873E-04
-6.074160312004E+00  2.098276575611849E-03  1.726528112187585E-04
-6.054160312004E+00  2.104112520534058E-03  1.735583170168879E-04
-6.034160312004E+00  2.109972665407859E-03  1.744710034304211E-04
-6.014160312004E+00  2.115857298869097E-03  1.753909480991278E-04
-5.994160312004E+00  2.121766710391572E-03  1.763182297082737E-04
-5.974160312004E+00  2.127701190356300E-03  1.772529280061058E-04
-5.954160312004E+00  2.133661030120105E-03  1.781951238216761E-04
-5.934160312004E+00  2.139646522083495E-03  1.791448990829992E-04
-5.914160312004E+00  2.145657959757860E-03  1.801023368355595E-04
-5.894160312004E+00  2.151695637832213E-03  1.810675212611713E-04
-5.874160312004E+00  2.157759852239224E-03  1.820405376972033E-04
-5.854160312004E+00  2.163850900220901E-03  1.830214726561726E-04
-5.834160312004E+00  2.169969080393771E-03  1.840104138457191E-04
-5.814160312004E+00  2.176114692813644E-03  1.850074501889717E-04
-5.794160312004E+00  2.182288039040061E-03  1.860126718453079E-04
-5.774160312004E+00  2.188489422200392E-03  1.870261702315247E-04
-5.754160312004E+00  2.194719147053654E-03  1.880480380434232E-04
-5.734160312004E+00  2.200977520054163E-03  1.890783692778232E-04
-5.714160312004E+00  2.207264849414864E-03  1.901172592550116E-04
-5.694160312004E+00  2.213581445170628E-03  1.911648046416401E-04
-5.674160312004E+00  2.219927619241373E-03  1.922211034740767E-04
-5.654160312004E+00  2.226303685495042E-03  1.932862551822324E-04
-5.634160312004E+00  2.232709959810705E-03  1.943603606138604E-04
-5.614160312004E+00  2.239146760141423E-03  1.954435220593499E-04
-5.594160312004E+00  2.245614406577337E-03  1.965358432770229E-04
-5.574160312004E+00  2.252113221408646E-03  1.976374295189419E-04
-5.554160312004E+00  2.258643529188858E-03  1.987483875572508E-04
-5.534160312004E+00  2.265205656797949E-03  1.998688257110488E-04
-5.514160312004E+00  2.271799933505843E-03  2.009988538738231E-04
-5.494160312004E+00  2.278426691036066E-03  2.021385835414403E-04
-5.474160312004E+00  2.285086263629505E-03  2.032881278407236E-04
-5.454160312004E+00  2.291778988108561E-03  2.044476015586218E-04
-5.434160312004E+00  2.298505203941459E-03  2.056171211719852E-04
-5.414160312004E+00  2.305265253307009E-03  2.067968048779637E-04
-5.394160312004E+00  2.312059481159573E-03  2.079867726250462E-04
-5.374160312004E+00  2.318888235294523E-03  2.091871461447509E-04
-5.354160312004E+00  2.325751866414026E-03  2.103980489839850E-04
-5.334160312004E+00  2.332650728193304E-03  2.116196065380942E-04
-5.314160312004E+00  2.339585177347374E-03  2.128519460846076E-04
-5.294160312004E+00  2.346555573698254E-03  2.140951968177153E-04
-5.274160312004E+00  2.353562280242700E-03  2.153494898834720E-04
-5.254160312004E+00  2.360605663220526E-03  2.166149584157636E-04
-5.234160312004E+00  2.367686092183537E-03  2.178917375730510E-04
-5.214160312004E+00  2.374803940064948E-03  2.191799645759039E-04
-5.194160312004E+00  2.381959583249647E-03  2.204797787453547E-04
-5.174160312004E+00  2.389153401644971E-03  2.217913215420839E-04
-5.154160312004E+00  2.396385778752275E-03  2.231147366064657E-04
-5.134160312004E+00  2.403657101739272E-03  2.244501697994895E-04
-5.114160312004E+00  2.410967761512990E-03  2.257977692445831E-04
-5.094160312004E+00  2.418318152793743E-03  2.271576853703614E-04
-5.074160312004E+00  2.425708674189759E-03  2.285300709543201E-04
-5.054160312004E+00  2.433139728272792E-03  2.299150811674993E-04
-5.034160312004E+00  2.440611721654541E-03  2.313128736201530E-04
-5.014160312004E+00  2.448125065064000E-03  2.327236084084273E-04
-4.994160312004E+00  2.455680173425932E-03  2.341474481620995E-04
-4.974160312004E+00  2.463277465940047E-03  2.355845580933882E-04
-4.954160312004E+00  2.470917366161470E-03  2.370351060468663E-04
-4.934160312004E+00  2.478600302082102E-03  2.384992625505125E-04
-4.914160312004E+00  2.486326706213163E-03  2.399772008679204E-04
-4.894160312004E+00  2.494097015668791E-03  2.414690970517045E-04
-4.874160312004E+00  2.501911672250889E-03  2.429751299981283E-04
-4.854160312004E+00  2.509771122535059E-03  2.444954815029941E-04
-4.834160312004E+00  2.517675817957838E-03  2.460303363188216E-04
-4.814160312004E+00  2.525626214905198E-03  2.475798822133493E-04
-4.794160312004E+00  2.533622774802326E-03  2.491443100294046E-04
-4.774160312004E+00  2.541665964204711E-03  2.507238137461594E-04
-4.754160312004E+00  2.549756254890719E-03  2.523185905418360E-04
-4.734160312004E+00  2.557894123955437E-03  2.539288408578721E-04
-4.714160312004E+00  2.566080053906091E-03  2.555547684646132E-04
-4.694160312004E+00  2.574314532758888E-03  2.571965805285471E-04
-4.674160312004E+00  2.582598054137411E-03  2.588544876811493E-04
-4.654160312004E+00  2.590931117372585E-03  2.605287040893595E-04
-4.634160312004E+00  2.599314227604302E-03  2.622194475277521E-04
-4.614160312004E+00  2.607747895884601E-03  2.639269394524332E-04
-4.594160312004E+00  2.616232639282663E-03  2.656514050767286E-04
-4.574160312004E+00  2.624768980991468E-03  2.673930734486922E-04
-4.554160312004E+00  2.633357450436316E-03  2.691521775305034E-04
-4.534160312004E+00  2.641998583385090E-03  2.709289542797974E-04
-4.514160312004E+00  2.650692922060508E-03  2.727236447329848E-04
-4.494160312004E+00  2.659441015254194E-03  2.745364940906136E-04
-4.474160312004E+00  2.668243418442858E-03  2.763677518048405E-04
-4.454160312004E+00  2.677100693906346E-03  2.782176716690599E-04
-4.434160312004E+00  2.686013410847946E-03  2.800865119097591E-04
-4.414160312004E+00  2.694982145516638E-03  2.819745352806622E-04
-4.394160312004E+00  2.704007481331725E-03  2.838820091592276E-04
-4.374160312004E+00  2.713090009009521E-03  2.858092056455663E-04
-4.354160312004E+00  2.722230326692434E-03  2.877564016638575E-04
-4.334160312004E+00  2.731429040080402E-03  2.897238790663177E-04
-4.314160312004E+00  2.740686762564678E-03  2.917119247398223E-04
-4.294160312004E+00  2.750004115364124E-03  2.937208307152295E-04
-4.274160312004E+00  2.759381727664016E-03  2.957508942795146E-04
-4.254160312004E+00  2.768820236757467E-03  2.978024180907702E-04
-4.234160312004E+00  2.778320288189409E-03  2.998757102961791E-04
-4.214160312004E+00  2.787882535903443E-03  3.019710846530315E-04
-4.194160312004E+00  2.797507642391333E-03  3.040888606528924E-04
-4.174160312004E+00  2.807196278845371E-03  3.062293636489977E-04
-4.154160312004E+00  2.816949125313768E-03  3.083929249869902E-04
-4.134160312004E+00  2.826766870858898E-03  3.105798821390882E-04
-4.114160312004E+00  2.836650213718675E-03  3.127905788417948E-04
-4.094160312004E+00  2.846599861471050E-03  3.150253652372431E-04
-4.074160312004E+00  2.856616531201718E-03  3.172845980183116E-04
-4.054160312004E+00  2.866700949675101E-03  3.195686405776086E-04
-4.034160312004E+00  2.876853853508781E-03  3.218778631604383E-04
-4.014160312004E+00  2.887075989351222E-03  3.242126430218940E-04
-3.994160312004E+00  2.897368114063184E-03  3.265733645881835E-04
-3.974160312004E+00  2.907730994902676E-03  3.289604196223357E-04
-3.954160312004E+00  2.918165409713611E-03  3.313742073944104E-04
-3.934160312004E+00  2.928672147118332E-03  3.338151348563681E-04
-3.914160312004E+00  2.939252006713905E-03  3.362836168217275E-04
-3.894160312004E+00  2.949905799272494E-03  3.387800761501860E-04
-3.874160312004E+00  2.960634346945804E-03  3.413049439373327E-04
-3.854160312004E+00  2.971438483473626E-03  3.438586597096418E-04
-3.834160312004E+00  2.982319054396766E-03  3.464416716249002E-04
-3.814160312004E+00  2.993276917274256E-03  3.490544366782469E-04
-3.794160312004E+00  3.004312941905126E-03  3.516974209140066E-04
-3.774160312004E+00  3.015428010554755E-03  3.543710996435073E-04
-3.754160312004E+00  3.026623018185894E-03  3.570759576690674E-04
-3.734160312004E+00  3.037898872694555E-03  3.598124895143690E-04
-3.714160312004E+00  3.049256495150830E-03  3.625811996614065E-04
-3.694160312004E+00  3.060696820044746E-03  3.653826027942490E-04
-3.674160312004E+00  3.072220795537338E-03  3.682172240498223E-04
-3.654160312004E+00  3.083829383717006E-03  3.710855992759580E-04
