#Spectra: 1
Emin______Emax      -9.045062974520240E+00  1.095493702547976E+01
EminPole__EmaxPole   1.079900699096348E+00  9.313053309937853E+00
dE________Gamma      2.000000000000000E-02  1.000000000000000E-01
Energy               Re[0]                  Im[0]                
-9.045062974520E+00  3.589237832636032E-02  4.328331075664803E-03
-9.025062974520E+00  3.657146841727182E-02  4.348166930243134E-03
-9.005062974520E+00  3.725042414956630E-02  4.368105336991055E-03
-8.985062974520E+00  3.792819299283069E-02  4.388141961827217E-03
-8.965062974520E+00  3.860374834245195E-02  4.408272594652795E-03
-8.945062974520E+00  3.927609972607141E-02  4.428493199353791E-03
-8.925062974520E+00  3.994430206569242E-02  4.448799959302429E-03
-8.905062974520E+00  4.060746379778231E-02  4.469189317386252E-03
-8.885062974520E+00  4.126475370474330E-02  4.489658009839976E-03
-8.865062974520E+00  4.191540636556279E-02  4.510203093419415E-03
-8.845062974520E+00  4.255872618780845E-02  4.530821965720481E-03
-8.825062974520E+00  4.319409003426926E-02  4.551512378694450E-03
-8.805062974520E+00  4.382094850290480E-02  4.572272445632558E-03
-8.785062974520E+00  4.443882595650277E-02  4.593100642076823E-03
-8.765062974520E+00  4.504731942749563E-02  4.613995801256207E-03
-8.745062974520E+00  4.564609654341360E-02  4.634957104746523E-03
-8.725062974520E+00  4.623489262977235E-02  4.655984069108282E-03
-8.705062974520E+00  4.681350715061849E-02  4.677076529275463E-03
-8.685062974520E+00  4.738179964363710E-02  4.698234619452827E-03
-8.665062974520E+00  4.793968529802611E-02  4.719458752239203E-03
-8.645062974520E+00  4.848713031064433E-02  4.740749596632942E-03
-8.625062974520E+00  4.902414714060466E-02  4.762108055503037E-03
-8.605062974520E+00  4.955078976570296E-02  4.783535243028048E-03
-8.585062974520E+00  5.006714902688403E-02  4.805032462522954E-03
-8.565062974520E+00  5.057334813015316E-02  4.826601184992447E-03
-8.545062974520E+00  5.106953835955072E-02  4.848243028673239E-03
-8.525062974520E+00  5.155589504045636E-02  4.869959739758531E-03
-8.505062974520E+00  5.203261377978621E-02  4.891753174436187E-03
-8.485062974520E+00  5.249990699874585E-02  4.913625282319397E-03
-8.465062974520E+00  5.295800076465898E-02  4.935578091304193E-03
-8.445062974520E+00  5.340713192097361E-02  4.957613693852179E-03
-8.425062974520E+00  5.384754550867397E-02  4.979734234668318E-03
-8.405062974520E+00  5.427949246787344E-02  5.001941899721233E-03
-8.385062974520E+00  5.470322760512376E-02  5.024238906538944E-03
-8.365062974520E+00  5.511900780978164E-02  5.046627495700595E-03
-8.345062974520E+00  5.552709050143727E-02  5.069109923439078E-03
-8.325062974520E+00  5.592773228977838E-02  5.091688455266100E-03
-8.305062974520E+00  5.632118782818395E-02  5.114365360530294E-03
-8.285062974520E+00  5.670770884269085E-02  5.137142907820842E-03
-8.265062974520E+00  5.708754331863770E-02  5.160023361132090E-03
-8.245062974520E+00  5.746093482818207E-02  5.183008976708695E-03
-8.225062974520E+00  5.782812198291959E-02  5.206102000495903E-03
-8.205062974520E+00  5.818933799696424E-02  5.229304666124677E-03
-8.185062974520E+00  5.854481034700760E-02  5.252619193367243E-03
-8.165062974520E+00  5.889476051704977E-02  5.276047787003876E-03
-8.145062974520E+00  5.923940381663429E-02  5.299592636047318E-03
-8.125062974520E+00  5.957894926252104E-02  5.323255913276765E-03
-8.105062974520E+00  5.991359951477474E-02  5.347039775037797E-03
-8.085062974520E+00  6.024355085921702E-02  5.370946361269774E-03
-8.065062974520E+00  6.056899322910310E-02  5.394977795726261E-03
-8.045062974520E+00  6.089011025970493E-02  5.419136186358227E-03
-8.025062974520E+00  6.120707937024909E-02  5.443423625833346E-03
-8.005062974520E+00  6.152007186833841E-02  5.467842192167739E-03
-7.985062974520E+00  6.182925307261142E-02  5.492393949450057E-03
-7.965062974520E+00  6.213478244994495E-02  5.517080948639987E-03
-7.945062974520E+00  6.243681376400218E-02  5.541905228425604E-03
-7.925062974520E+00  6.273549523237401E-02  5.566868816126699E-03
-7.905062974520E+00  6.303096968994222E-02  5.591973728632418E-03
-7.885062974520E+00  6.332337475645285E-02  5.617221973363405E-03
-7.865062974520E+00  6.361284300657485E-02  5.642615549250557E-03
-7.845062974520E+00  6.389950214100139E-02  5.668156447723108E-03
-7.825062974520E+00  6.418347515737030E-02  5.693846653700163E-03
-7.805062974520E+00  6.446488051999454E-02  5.719688146580991E-03
-7.785062974520E+00  6.474383232756184E-02  5.745682901229924E-03
-7.765062974520E+00  6.502044047812018E-02  5.771832888952591E-03
-7.745062974520E+00  6.529481083079439E-02  5.798140078460844E-03
-7.725062974520E+00  6.556704536380015E-02  5.824606436824248E-03
-7.705062974520E+00  6.583724232840875E-02  5.851233930406505E-03
-7.685062974520E+00  6.610549639860892E-02  5.878024525785728E-03
-7.665062974520E+00  6.637189881627781E-02  5.904980190657309E-03
-7.645062974520E+00  6.663653753173696E-02  5.932102894719298E-03
-7.625062974520E+00  6.689949733961920E-02  5.959394610539600E-03
-7.605062974520E+00  6.716086001001206E-02  5.986857314404937E-03
-7.585062974520E+00  6.742070441488426E-02  6.014492987151692E-03
-7.565062974520E+00  6.767910664983025E-02  6.042303614978784E-03
-7.545062974520E+00  6.793614015118905E-02  6.070291190242875E-03
-7.525062974520E+00  6.819187580861379E-02  6.098457712236339E-03
-7.505062974520E+00  6.844638207319204E-02  6.126805187948593E-03
-7.485062974520E+00  6.869972506121819E-02  6.155335632810994E-03
-7.465062974520E+00  6.895196865373489E-02  6.184051071426354E-03
-7.445062974520E+00  6.920317459196947E-02  6.212953538283442E-03
-7.425062974520E+00  6.945340256879286E-02  6.242045078457224E-03
-7.405062974520E+00  6.970271031633156E-02  6.271327748295488E-03
-7.385062974520E+00  6.995115368987011E-02  6.300803616092561E-03
-7.365062974520E+00  7.019878674817429E-02  6.330474762750924E-03
-7.345062974520E+00  7.044566183037515E-02  6.360343282431279E-03
-7.325062974520E+00  7.069182962954325E-02  6.390411283191872E-03
-7.305062974520E+00  7.093733926308488E-02  6.420680887617806E-03
-7.285062974520E+00  7.118223834009101E-02  6.451154233440873E-03
-7.265062974520E+00  7.142657302576638E-02  6.481833474150805E-03
-7.245062974520E+00  7.167038810305569E-02  6.512720779598412E-03
-7.225062974520E+00  7.191372703159682E-02  6.543818336591405E-03
-7.205062974520E+00  7.215663200410691E-02  6.575128349483473E-03
-7.185062974520E+00  7.239914400031967E-02  6.606653040757175E-03
-7.165062974520E+00  7.264130283858200E-02  6.638394651601509E-03
-7.145062974520E+00  7.288314722521004E-02  6.670355442484356E-03
-7.125062974520E+00  7.312471480171266E-02  6.702537693720812E-03
-7.105062974520E+00  7.336604218997102E-02  6.734943706037558E-03
-7.085062974520E+00  7.360716503547285E-02  6.767575801134089E-03
-7.065062974520E+00  7.384811804868949E-02  6.800436322241285E-03
-7.045062974520E+00  7.408893504467615E-02  6.833527634677692E-03
-7.025062974520E+00  7.432964898098654E-02  6.866852126404249E-03
-7.005062974520E+00  7.457029199396763E-02  6.900412208577680E-03
-6.985062974520E+00  7.481089543352547E-02  6.934210316103273E-03
-6.965062974520E+00  7.505148989641190E-02  6.968248908187326E-03
-6.945062974520E+00  7.529210525812402E-02  7.002530468889774E-03
-6.925062974520E+00  7.553277070346247E-02  7.037057507677516E-03
-6.905062974520E+00  7.577351475582092E-02  7.071832559978606E-03
-6.885062974520E+00  7.601436530526319E-02  7.106858187738084E-03
-6.865062974520E+00  7.625534963544298E-02  7.142136979975568E-03
-6.845062974520E+00  7.649649444942375E-02  7.177671553345069E-03
-6.825062974520E+00  7.673782589444571E-02  7.213464552697540E-03
-6.805062974520E+00  7.697936958569218E-02  7.249518651646303E-03
-6.785062974520E+00  7.722115062910082E-02  7.285836553135982E-03
-6.765062974520E+00  7.746319364326312E-02  7.322420990015130E-03
-6.745062974520E+00  7.770552278045653E-02  7.359274725612938E-03
-6.725062974520E+00  7.794816174684657E-02  7.396400554320380E-03
-6.705062974520E+00  7.819113382190274E-02  7.433801302176270E-03
-6.685062974520E+00  7.843446187705556E-02  7.471479827458307E-03
-6.665062974520E+00  7.867816839364120E-02  7.509439021279670E-03
-6.645062974520E+00  7.892227548015632E-02  7.547681808191385E-03
-6.625062974520E+00  7.916680488886073E-02  7.586211146790919E-03
-6.605062974520E+00  7.941177803175785E-02  7.625030030337048E-03
-6.585062974520E+00  7.965721599597747E-02  7.664141487371694E-03
-6.565062974520E+00  7.990313955859350E-02  7.703548582348723E-03
-6.545062974520E+00  8.014956920089815E-02  7.743254416270285E-03
-6.525062974520E+00  8.039652512216075E-02  7.783262127330761E-03
-6.505062974520E+00  8.064402725289244E-02  7.823574891568853E-03
-6.485062974520E+00  8.089209526764056E-02  7.864195923528128E-03
-6.465062974520E+00  8.114074859733426E-02  7.905128476925909E-03
-6.445062974520E+00  8.139000644120092E-02  7.946375845331647E-03
-6.425062974520E+00  8.163988777827318E-02  7.987941362854290E-03
-6.405062974520E+00  8.189041137850601E-02  8.029828404839351E-03
-6.385062974520E+00  8.214159581352137E-02  8.072040388575962E-03
-6.365062974520E+00  8.239345946699571E-02  8.114580774014347E-03
-6.345062974520E+00  8.264602054470851E-02  8.157453064493494E-03
-6.325062974520E+00  8.289929708426726E-02  8.200660807480329E-03
-6.305062974520E+00  8.315330696452070E-02  8.244207595319592E-03
-6.285062974520E+00  8.340806791468025E-02  8.288097065995804E-03
-6.265062974520E+00  8.366359752315597E-02  8.332332903906664E-03
-6.245062974520E+00  8.391991324612458E-02  8.376918840649174E-03
-6.225062974520E+00  8.417703241584126E-02  8.421858655817942E-03
-6.205062974520E+00  8.443497224870471E-02  8.467156177816813E-03
-6.185062974520E+00  8.469374985309169E-02  8.512815284683570E-03
-6.165062974520E+00  8.495338223696235E-02  8.558839904928329E-03
-6.145062974520E+00  8.521388631525795E-02  8.605234018385978E-03
-6.125062974520E+00  8.547527891709321E-02  8.652001657083016E-03
-6.105062974520E+00  8.573757679275430E-02  8.699146906119113E-03
-6.085062974520E+00  8.600079662051378E-02  8.746673904563868E-03
-6.065062974520E+00  8.626495501326707E-02  8.794586846368897E-03
-6.045062974520E+00  8.653006852500245E-02  8.842889981296075E-03
-6.025062974520E+00  8.679615365711102E-02  8.891587615861929E-03
-6.005062974520E+00  8.706322686454265E-02  8.940684114298761E-03
-5.985062974520E+00  8.733130456181977E-02  8.990183899532919E-03
-5.965062974520E+00  8.760040312890845E-02  9.040091454180641E-03
-5.945062974520E+00  8.787053891696170E-02  9.090411321561742E-03
-5.925062974520E+00  8.814172825393626E-02  9.141148106731858E-03
-5.905062974520E+00  8.841398745009023E-02  9.192306477533389E-03
-5.885062974520E+00  8.868733280336705E-02  9.243891165666023E-03
-5.865062974520E+00  8.896178060467472E-02  9.295906967776556E-03
-5.845062974520E+00  8.923734714305963E-02  9.348358746569555E-03
-5.825062974520E+00  8.951404871078490E-02  9.401251431938162E-03
-5.805062974520E+00  8.979190160832115E-02  9.454590022116661E-03
-5.785062974520E+00  9.007092214924285E-02  9.508379584854199E-03
-5.765062974520E+00  9.035112666505085E-02  9.562625258611462E-03
-5.745062974520E+00  9.063253150991130E-02  9.617332253779353E-03
-5.725062974520E+00  9.091515306532641E-02  9.672505853921624E-03
-5.705062974520E+00  9.119900774473183E-02  9.728151417041036E-03
-5.685062974520E+00  9.148411199803277E-02  9.784274376870039E-03
-5.665062974520E+00  9.177048231607919E-02  9.840880244186445E-03
-5.645062974520E+00  9.205813523508230E-02  9.897974608154822E-03
-5.625062974520E+00  9.234708734097831E-02  9.955563137693949E-03
-5.605062974520E+00  9.263735527374357E-02  1.001365158287115E-02
-5.585062974520E+00  9.292895573166353E-02  1.007224577632420E-02
-5.565062974520E+00  9.322190547555667E-02  1.013135163471127E-02
-5.545062974520E+00  9.351622133296224E-02  1.019097516018968E-02
-5.525062974520E+00  9.381192020228843E-02  1.025112244192405E-02
-5.505062974520E+00  9.410901905692882E-02  1.031179965762482E-02
-5.485062974520E+00  9.440753494934923E-02  1.037301307511756E-02
-5.465062974520E+00  9.470748501514385E-02  1.043476905394386E-02
-5.445062974520E+00  9.500888647707194E-02  1.049707404699465E-02
-5.425062974520E+00  9.531175664906634E-02  1.055993460217687E-02
-5.405062974520E+00  9.561611294022984E-02  1.062335736411373E-02
-5.385062974520E+00  9.592197285880731E-02  1.068734907588009E-02
-5.365062974520E+00  9.622935401615006E-02  1.075191658077336E-02
-5.345062974520E+00  9.653827413066592E-02  1.081706682412067E-02
-5.325062974520E+00  9.684875103176031E-02  1.088280685512373E-02
-5.305062974520E+00  9.716080266377131E-02  1.094914382874168E-02
-5.285062974520E+00  9.747444708989951E-02  1.101608500761318E-02
-5.265062974520E+00  9.778970249613675E-02  1.108363776401872E-02
-5.245062974520E+00  9.810658719519461E-02  1.115180958188399E-02
-5.225062974520E+00  9.842511963043511E-02  1.122060805882523E-02
-5.205062974520E+00  9.874531837980713E-02  1.129004090823801E-02
-5.185062974520E+00  9.906720215978861E-02  1.136011596142985E-02
-5.165062974520E+00  9.939078982933693E-02  1.143084116979843E-02
-5.145062974520E+00  9.971610039385220E-02  1.150222460705592E-02
-5.125062974520E+00  1.000431530091538E-01  1.157427447150114E-02
-5.105062974520E+00  1.003719669854684E-01  1.164699908834019E-02
-5.085062974520E+00  1.007025617914402E-01  1.172040691205703E-02
-5.065062974520E+00  1.010349570581562E-01  1.179450652883541E-02
-5.045062974520E+00  1.013691725831961E-01  1.186930665903293E-02
-5.025062974520E+00  1.017052283347003E-01  1.194481615970910E-02
-5.005062974520E+00  1.020431444554697E-01  1.202104402720840E-02
-4.985062974520E+00  1.023829412670874E-01  1.209799939979980E-02
-4.965062974520E+00  1.027246392740710E-01  1.217569156037404E-02
-4.945062974520E+00  1.030682591680546E-01  1.225412993920056E-02
-4.925062974520E+00  1.034138218320069E-01  1.233332411674500E-02
-4.905062974520E+00  1.037613483444811E-01  1.241328382654928E-02
-4.885062974520E+00  1.041108599839007E-01  1.249401895817560E-02
-4.865062974520E+00  1.044623782328878E-01  1.257553956021591E-02
-4.845062974520E+00  1.048159247826275E-01  1.265785584336902E-02
-4.825062974520E+00  1.051715215372772E-01  1.274097818358642E-02
-4.805062974520E+00  1.055291906184203E-01  1.282491712528893E-02
-4.785062974520E+00  1.058889543695640E-01  1.290968338465631E-02
-4.765062974520E+00  1.062508353606894E-01  1.299528785299083E-02
-4.745062974520E+00  1.066148563928454E-01  1.308174160015775E-02
-4.725062974520E+00  1.069810405028013E-01  1.316905587810398E-02
-4.705062974520E+00  1.073494109677490E-01  1.325724212445735E-02
-4.685062974520E+00  1.077199913100636E-01  1.334631196620831E-02
-4.665062974520E+00  1.080928053021196E-01  1.343627722347655E-02
-4.645062974520E+00  1.084678769711705E-01  1.352714991336452E-02
-4.625062974520E+00  1.088452306042872E-01  1.361894225390022E-02
-4.605062974520E+00  1.092248907533616E-01  1.371166666807165E-02
-4.585062974520E+00  1.096068822401770E-01  1.380533578795549E-02
-4.565062974520E+00  1.099912301615470E-01  1.389996245894209E-02
-4.545062974520E+00  1.103779598945219E-01  1.399555974405991E-02
-4.525062974520E+00  1.107670971016717E-01  1.409214092840171E-02
-4.505062974520E+00  1.111586677364401E-01  1.418971952365521E-02
-4.485062974520E+00  1.115526980485771E-01  1.428830927274132E-02
-4.465062974520E+00  1.119492145896503E-01  1.438792415456270E-02
-4.445062974520E+00  1.123482442186385E-01  1.448857838886536E-02
-4.425062974520E+00  1.127498141076056E-01  1.459028644121705E-02
-4.405062974520E+00  1.131539517474634E-01  1.469306302810489E-02
-4.385062974520E+00  1.135606849538219E-01  1.479692312215611E-02
-4.365062974520E+00  1.139700418729293E-01  1.490188195748485E-02
-4.345062974520E+00  1.143820509877051E-01  1.500795503516884E-02
-4.325062974520E+00  1.147967411238690E-01  1.511515812885919E-02
-4.305062974520E+00  1.152141414561676E-01  1.522350729052758E-02
-4.285062974520E+00  1.156342815147016E-01  1.533301885635369E-02
-4.265062974520E+00  1.160571911913539E-01  1.544370945275813E-02
-4.245062974520E+00  1.164829007463274E-01  1.555559600258358E-02
-4.225062974520E+00  1.169114408147870E-01  1.566869573142933E-02
-4.205062974520E+00  1.173428424136143E-01  1.578302617414300E-02
-4.185062974520E+00  1.177771369482759E-01  1.589860518147418E-02
-4.165062974520E+00  1.182143562198081E-01  1.601545092689445E-02
-4.145062974520E+00  1.186545324319203E-01  1.613358191358827E-02
-4.125062974520E+00  1.190976981982211E-01  1.625301698162051E-02
-4.105062974520E+00  1.195438865495697E-01  1.637377531528438E-02
-4.085062974520E+00  1.199931309415552E-01  1.649587645063629E-02
-4.065062974520E+00  1.204454652621078E-01  1.661934028322192E-02
-4.045062974520E+00  1.209009238392417E-01  1.674418707599990E-02
-4.025062974520E+00  1.213595414489395E-01  1.687043746746832E-02
-4.005062974520E+00  1.218213533231744E-01  1.699811247999990E-02
-3.985062974520E+00  1.222863951580788E-01  1.712723352839305E-02
-3.965062974520E+00  1.227547031222570E-01  1.725782242864303E-02
-3.945062974520E+00  1.232263138652523E-01  1.738990140694206E-02
-3.925062974520E+00  1.237012645261669E-01  1.752349310891372E-02
-3.905062974520E+00  1.241795927424401E-01  1.765862060908863E-02
-3.885062974520E+00  1.246613366587870E-01  1.779530742062913E-02
-3.865062974520E+00  1.251465349363046E-01  1.793357750531067E-02
-3.845062974520E+00  1.256352267617447E-01  1.807345528376605E-02
-3.825062974520E+00  1.261274518569649E-01  1.821496564600263E-02
-3.805062974520E+00  1.266232504885476E-01  1.835813396219887E-02
-3.785062974520E+00  1.271226634776081E-01  1.850298609378952E-02
-3.765062974520E+00  1.276257322097839E-01  1.864954840484878E-02
-3.745062974520E+00  1.281324986454158E-01  1.879784777377881E-02
-3.725062974520E+00  1.286430053299207E-01  1.894791160531494E-02
-3.705062974520E+00  1.291572954043607E-01  1.909976784285579E-02
-3.685062974520E+00  1.296754126162191E-01  1.925344498112965E-02
-3.665062974520E+00  1.301974013303787E-01  1.940897207920577E-02
-3.645062974520E+00  1.307233065403167E-01  1.956637877386324E-02
-3.625062974520E+00  1.312531738795096E-01  1.972569529332713E-02
-3.605062974520E+00  1.317870496330657E-01  1.988695247138441E-02
-3.585062974520E+00  1.323249807495772E-01  2.005018176189036E-02
-3.565062974520E+00  1.328670148532100E-01  2.021541525367934E-02
-3.545062974520E+00  1.334132002560220E-01  2.038268568589147E-02
-3.525062974520E+00  1.339635859705325E-01  2.055202646372866E-02
-3.505062974520E+00  1.345182217225265E-01  2.072347167465417E-02
-3.485062974520E+00  1.350771579641218E-01  2.089705610504939E-02
-3.465062974520E+00  1.356404458870853E-01  2.107281525734325E-02
-3.445062974520E+00  1.362081374364186E-01  2.125078536762713E-02
-3.425062974520E+00  1.367802853242086E-01  2.143100342377555E-02
-3.405062974520E+00  1.373569430437547E-01  2.161350718408353E-02
-3.385062974520E+00  1.379381648839733E-01  2.179833519644164E-02
-3.365062974520E+00  1.385240059440963E-01  2.198552681806473E-02
-3.345062974520E+00  1.391145221486542E-01  2.217512223579216E-02
-3.325062974520E+00  1.397097702627592E-01  2.236716248697885E-02
-3.305062974520E+00  1.403098079077033E-01  2.256168948099703E-02
-3.285062974520E+00  1.409146935768534E-01  2.275874602136798E-02
-3.265062974520E+00  1.415244866518764E-01  2.295837582854558E-02
-3.245062974520E+00  1.421392474192843E-01  2.316062356337334E-02
-3.225062974520E+00  1.427590370873120E-01  2.336553485123656E-02
-3.205062974520E+00  1.433839178031344E-01  2.357315630693481E-02
-3.185062974520E+00  1.440139526704278E-01  2.378353556029691E-02
-3.165062974520E+00  1.446492057672859E-01  2.399672128256600E-02
-3.145062974520E+00  1.452897421644967E-01  2.421276321357809E-02
-3.125062974520E+00  1.459356279441806E-01  2.443171218976457E-02
-3.105062974520E+00  1.465869302188116E-01  2.465362017300303E-02
