#Spectra: 1
Emin______Emax      -1.483413864938448E+01  2.516586135061552E+01
EminPole__EmaxPole  -4.750265030879186E+00  1.541361602383059E+01
dE________Gamma      4.000000000000000E-02  1.000000000000000E-01
Energy               Re[0]                  Im[0]                
-1.483413864938E+01  1.848713727734565E-03  6.363102313896943E-05
-1.479413864938E+01  2.068588387089098E-03  6.502735475924471E-05
-1.475413864938E+01  2.265487804326584E-03  6.633235875731649E-05
-1.471413864938E+01  2.433346491378732E-03  6.751936693020083E-05
-1.467413864938E+01  2.572973488640842E-03  6.859152953593257E-05
-1.463413864938E+01  2.688420123915356E-03  6.956611966951704E-05
-1.459413864938E+01  2.784385926611952E-03  7.046329664735296E-05
-1.455413864938E+01  2.865063363403042E-03  7.130108914407023E-05
-1.451413864938E+01  2.933832493737658E-03  7.209405847740610E-05
-1.447413864938E+01  2.993305353221358E-03  7.285347893150156E-05
-1.443413864938E+01  3.045469588795245E-03  7.358795069482957E-05
-1.439413864938E+01  3.091834674386806E-03  7.430402630790033E-05
-1.435413864938E+01  3.133552479376906E-03  7.500672782356280E-05
-1.431413864938E+01  3.171509251216966E-03  7.569994148404498E-05
-1.427413864938E+01  3.206393588355491E-03  7.638670937461262E-05
-1.423413864938E+01  3.238746101262096E-03  7.706944246760284E-05
-1.419413864938E+01  3.268995653047566E-03  7.775007605248967E-05
-1.415413864938E+01  3.297485919061404E-03  7.843018361175803E-05
-1.411413864938E+01  3.324494990718960E-03  7.911106084858636E-05
-1.407413864938E+01  3.350249970145330E-03  7.979378822713168E-05
-1.403413864938E+01  3.374937936730753E-03  8.047927795625481E-05
-1.399413864938E+01  3.398714265869940E-03  8.116830962518402E-05
-1.395413864938E+01  3.421708998698875E-03  8.186155749034761E-05
-1.391413864938E+01  3.444031764284395E-03  8.255961156482778E-05
-1.387413864938E+01  3.465775616917731E-03  8.326299406581145E-05
-1.383413864938E+01  3.487020052996615E-03  8.397217235395243E-05
-1.379413864938E+01  3.507833402064641E-03  8.468756919850137E-05
-1.375413864938E+01  3.528274736389906E-03  8.540957098673360E-05
-1.371413864938E+01  3.548395407144342E-03  8.613853434043427E-05
-1.367413864938E+01  3.568240288737004E-03  8.687479148855187E-05
-1.363413864938E+01  3.587848793349383E-03  8.761865466153569E-05
-1.359413864938E+01  3.607255703247443E-03  8.837041971087289E-05
-1.355413864938E+01  3.626491857622568E-03  8.913036911099854E-05
-1.351413864938E+01  3.645584722556086E-03  8.989877446582212E-05
-1.347413864938E+01  3.664558866508248E-03  9.067589861562838E-05
-1.343413864938E+01  3.683436358995634E-03  9.146199741984322E-05
-1.339413864938E+01  3.702237106473181E-03  9.225732127556031E-05
-1.335413864938E+01  3.720979136609199E-03  9.306211641964824E-05
-1.331413864938E+01  3.739678839935462E-03  9.387662605283192E-05
-1.327413864938E+01  3.758351176123288E-03  9.470109131675163E-05
-1.323413864938E+01  3.777009850768773E-03  9.553575214917263E-05
-1.319413864938E+01  3.795667467485622E-03  9.638084803789653E-05
-1.315413864938E+01  3.814335659236769E-03  9.723661869022011E-05
-1.311413864938E+01  3.833025202141766E-03  9.810330463184566E-05
-1.307413864938E+01  3.851746114435487E-03  9.898114774675429E-05
-1.303413864938E+01  3.870507742800267E-03  9.987039176762433E-05
-1.299413864938E+01  3.889318837923610E-03  1.007712827248155E-04
-1.295413864938E+01  3.908187620831729E-03  1.016840693606499E-04
-1.291413864938E+01  3.927121841301082E-03  1.026090035146859E-04
-1.287413864938E+01  3.946128829445937E-03  1.035463404848047E-04
-1.283413864938E+01  3.965215541410537E-03  1.044963393682295E-04
-1.279413864938E+01  3.984388599954316E-03  1.054592633859986E-04
-1.275413864938E+01  4.003654330601438E-03  1.064353801939347E-04
-1.271413864938E+01  4.023018793928428E-03  1.074249621827344E-04
-1.267413864938E+01  4.042487814480672E-03  1.084282867694699E-04
-1.263413864938E+01  4.062067006740418E-03  1.094456366825125E-04
-1.259413864938E+01  4.081761798509807E-03  1.104773002416378E-04
-1.255413864938E+01  4.101577452023534E-03  1.115235716348897E-04
-1.251413864938E+01  4.121519083063164E-03  1.125847511935992E-04
-1.247413864938E+01  4.141591678309918E-03  1.136611456668200E-04
-1.243413864938E+01  4.161800111141728E-03  1.147530684963269E-04
-1.239413864938E+01  4.182149156054715E-03  1.158608400932180E-04
-1.235413864938E+01  4.202643501866000E-03  1.169847881170902E-04
-1.231413864938E+01  4.223287763836361E-03  1.181252477586792E-04
-1.227413864938E+01  4.244086494833872E-03  1.192825620268020E-04
-1.223413864938E+01  4.265044195645711E-03  1.204570820404042E-04
-1.219413864938E+01  4.286165324532257E-03  1.216491673264579E-04
-1.215413864938E+01  4.307454306107731E-03  1.228591861244508E-04
-1.211413864938E+01  4.328915539621209E-03  1.240875156981637E-04
-1.207413864938E+01  4.350553406704208E-03  1.253345426554307E-04
-1.203413864938E+01  4.372372278643994E-03  1.266006632765664E-04
-1.199413864938E+01  4.394376523234695E-03  1.278862838521259E-04
-1.195413864938E+01  4.416570511254158E-03  1.291918210306809E-04
-1.191413864938E+01  4.438958622608243E-03  1.305177021772789E-04
-1.187413864938E+01  4.461545252181106E-03  1.318643657432799E-04
-1.183413864938E+01  4.484334815425871E-03  1.332322616482497E-04
-1.179413864938E+01  4.507331753726765E-03  1.346218516746281E-04
-1.175413864938E+01  4.530540539561164E-03  1.360336098758884E-04
-1.171413864938E+01  4.553965681487228E-03  1.374680229989343E-04
-1.167413864938E+01  4.577611728980999E-03  1.389255909214959E-04
-1.163413864938E+01  4.601483277144048E-03  1.404068271053140E-04
-1.159413864938E+01  4.625584971301997E-03  1.419122590659406E-04
-1.155413864938E+01  4.649921511512243E-03  1.434424288599902E-04
-1.151413864938E+01  4.674497656997446E-03  1.449978935907391E-04
-1.147413864938E+01  4.699318230521301E-03  1.465792259329845E-04
-1.143413864938E+01  4.724388122720630E-03  1.481870146781310E-04
-1.139413864938E+01  4.749712296408422E-03  1.498218653004992E-04
-1.135413864938E+01  4.775295790860177E-03  1.514844005459211E-04
-1.131413864938E+01  4.801143726096706E-03  1.531752610437030E-04
-1.127413864938E+01  4.827261307174519E-03  1.548951059431263E-04
-1.123413864938E+01  4.853653828495576E-03  1.566446135756902E-04
-1.119413864938E+01  4.880326678146974E-03  1.584244821443651E-04
-1.115413864938E+01  4.907285342281435E-03  1.602354304411877E-04
-1.111413864938E+01  4.934535409548267E-03  1.620781985946261E-04
-1.107413864938E+01  4.962082575585419E-03  1.639535488481573E-04
-1.103413864938E+01  4.989932647582032E-03  1.658622663716520E-04
-1.099413864938E+01  5.018091548921121E-03  1.678051601071741E-04
-1.095413864938E+01  5.046565323912361E-03  1.697830636509528E-04
-1.091413864938E+01  5.075360142624098E-03  1.717968361733327E-04
-1.087413864938E+01  5.104482305824615E-03  1.738473633786367E-04
-1.083413864938E+01  5.133938250041859E-03  1.759355585069751E-04
-1.079413864938E+01  5.163734552751626E-03  1.780623633801451E-04
-1.075413864938E+01  5.193877937704150E-03  1.802287494938925E-04
-1.071413864938E+01  5.224375280398789E-03  1.824357191589391E-04
-1.067413864938E+01  5.255233613717361E-03  1.846843066933087E-04
-1.063413864938E+01  5.286460133726601E-03  1.869755796686442E-04
-1.059413864938E+01  5.318062205660275E-03  1.893106402133556E-04
-1.055413864938E+01  5.350047370092629E-03  1.916906263756148E-04
-1.051413864938E+01  5.382423349313685E-03  1.941167135493872E-04
-1.047413864938E+01  5.415198053919553E-03  1.965901159668858E-04
-1.043413864938E+01  5.448379589628938E-03  1.991120882610348E-04
-1.039413864938E+01  5.481976264339249E-03  2.016839271017495E-04
-1.035413864938E+01  5.515996595435621E-03  2.043069729100743E-04
-1.031413864938E+01  5.550449317366603E-03  2.069826116544693E-04
-1.027413864938E+01  5.585343389501226E-03  2.097122767338015E-04
-1.023413864938E+01  5.620688004282574E-03  2.124974509518891E-04
-1.019413864938E+01  5.656492595693784E-03  2.153396685887414E-04
-1.015413864938E+01  5.692766848053354E-03  2.182405175739816E-04
-1.011413864938E+01  5.729520705157110E-03  2.212016417682725E-04
-1.007413864938E+01  5.766764379785461E-03  2.242247433589611E-04
-1.003413864938E+01  5.804508363595308E-03  2.273115853765437E-04
-9.994138649384E+00  5.842763437416978E-03  2.304639943390022E-04
-9.954138649384E+00  5.881540681977901E-03  2.336838630315195E-04
-9.914138649384E+00  5.920851489075569E-03  2.369731534295829E-04
-9.874138649384E+00  5.960707573224036E-03  2.403338997740246E-04
-9.834138649384E+00  6.001120983798998E-03  2.437682118071260E-04
-9.794138649384E+00  6.042104117708563E-03  2.472782781795352E-04
-9.754138649384E+00  6.083669732617886E-03  2.508663700384117E-04
-9.714138649384E+00  6.125830960757669E-03  2.545348448079368E-04
-9.674138649384E+00  6.168601323348601E-03  2.582861501741206E-04
-9.634138649384E+00  6.211994745674874E-03  2.621228282866340E-04
-9.594138649384E+00  6.256025572843227E-03  2.660475201913511E-04
-9.554138649384E+00  6.300708586264845E-03  2.700629705082214E-04
-9.514138649384E+00  6.346059020900702E-03  2.741720323701624E-04
-9.474138649384E+00  6.392092583313013E-03  2.783776726398216E-04
-9.434138649384E+00  6.438825470568294E-03  2.826829774222361E-04
-9.394138649384E+00  6.486274390040361E-03  2.870911578928207E-04
-9.354138649384E+00  6.534456580164803E-03  2.916055564615054E-04
-9.314138649384E+00  6.583389832199620E-03  2.962296532954358E-04
-9.274138649384E+00  6.633092513050455E-03  3.009670732243483E-04
-9.234138649384E+00  6.683583589222809E-03  3.058215930545413E-04
-9.194138649384E+00  6.734882651967141E-03  3.107971493194270E-04
-9.154138649384E+00  6.787009943688385E-03  3.158978464967490E-04
-9.114138649384E+00  6.839986385694748E-03  3.211279657249561E-04
-9.074138649384E+00  6.893833607367293E-03  3.264919740537956E-04
-9.034138649384E+00  6.948573976836181E-03  3.319945342669578E-04
-8.994138649384E+00  7.004230633256101E-03  3.376405153176884E-04
-8.954138649384E+00  7.060827520779996E-03  3.434350034215630E-04
-8.914138649384E+00  7.118389424336634E-03  3.493833138543268E-04
-8.874138649384E+00  7.176942007325824E-03  3.554910035065552E-04
-8.834138649384E+00  7.236511851352588E-03  3.617638842513322E-04
-8.794138649384E+00  7.297126498131327E-03  3.682080371858049E-04
-8.754138649384E+00  7.358814493699538E-03  3.748298278126928E-04
-8.714138649384E+00  7.421605435092133E-03  3.816359222335134E-04
-8.674138649384E+00  7.485530019637878E-03  3.886333044315072E-04
-8.634138649384E+00  7.550620097052226E-03  3.958292947290901E-04
-8.594138649384E+00  7.616908724513641E-03  4.032315695121908E-04
-8.554138649384E+00  7.684430224925788E-03  4.108481823220595E-04
-8.514138649384E+00  7.753220248582274E-03  4.186875864242705E-04
-8.474138649384E+00  7.823315838469467E-03  4.267586589746151E-04
-8.434138649384E+00  7.894755499460013E-03  4.350707269126733E-04
-8.394138649384E+00  7.967579271670857E-03  4.436335947259869E-04
-8.354138649384E+00  8.041828808281620E-03  4.524575742412813E-04
-8.314138649384E+00  8.117547458132819E-03  4.615535166140283E-04
-8.274138649384E+00  8.194780353450812E-03  4.709328467041690E-04
-8.234138649384E+00  8.273574503074055E-03  4.806076000440392E-04
-8.194138649384E+00  8.353978891588038E-03  4.905904626248795E-04
-8.154138649384E+00  8.436044584810183E-03  5.008948137507407E-04
-8.114138649384E+00  8.519824842104175E-03  5.115347722336995E-04
-8.074138649384E+00  8.605375236045083E-03  5.225252462320840E-04
-8.034138649384E+00  8.692753780002109E-03  5.338819870645646E-04
-7.994138649384E+00  8.782021064256592E-03  5.456216473674521E-04
-7.954138649384E+00  8.873240401327946E-03  5.577618440014261E-04
-7.914138649384E+00  8.966477981241332E-03  5.703212261570051E-04
-7.874138649384E+00  9.061803037538873E-03  5.833195491567367E-04
-7.834138649384E+00  9.159288024909633E-03  5.967777545062719E-04
-7.794138649384E+00  9.259008809396124E-03  6.107180568076427E-04
-7.754138649384E+00  9.361044872226406E-03  6.251640382166257E-04
-7.714138649384E+00  9.465479528420964E-03  6.401407512033748E-04
-7.674138649384E+00  9.572400161435509E-03  6.556748304626234E-04
-7.634138649384E+00  9.681898475223981E-03  6.717946149181451E-04
-7.594138649384E+00  9.794070765245034E-03  6.885302808774545E-04
-7.554138649384E+00  9.909018210086339E-03  7.059139875187281E-04
-7.514138649384E+00  1.002684718555345E-02  7.239800360349077E-04
-7.474138649384E+00  1.014766960325848E-02  7.427650439223998E-04
-7.434138649384E+00  1.027160327595636E-02  7.623081360866966E-04
-7.394138649384E+00  1.039877231211365E-02  7.826511546479780E-04
-7.354138649384E+00  1.052930754245997E-02  8.038388895705412E-04
-7.314138649384E+00  1.066334698156834E-02  8.259193325152323E-04
-7.274138649384E+00  1.080103632784504E-02  8.489439566298277E-04
-7.234138649384E+00  1.094252950568340E-02  8.729680253546637E-04
-7.194138649384E+00  1.108798925395574E-02  8.980509337379407E-04
-7.154138649384E+00  1.123758776549278E-02  9.242565862359076E-04
-7.114138649384E+00  1.139150738273369E-02  9.516538155284398E-04
-7.074138649384E+00  1.154994135533226E-02  9.803168475234769E-04
-7.034138649384E+00  1.171309466618688E-02  1.010325818469578E-03
-6.994138649384E+00  1.188118493313393E-02  1.041767350962904E-03
-6.954138649384E+00  1.205444339441784E-02  1.074735196645457E-03
-6.914138649384E+00  1.223311598704382E-02  1.109330954571503E-03
-6.874138649384E+00  1.241746452824765E-02  1.145664875601067E-03
-6.834138649384E+00  1.260776801159798E-02  1.183856764801284E-03
-6.794138649384E+00  1.280432403071032E-02  1.224036995745074E-03
-6.754138649384E+00  1.300745034521593E-02  1.266347652848697E-03
-6.714138649384E+00  1.321748660553443E-02  1.310943820554028E-03
-6.674138649384E+00  1.343479625517089E-02  1.357995041322536E-03
-6.634138649384E+00  1.365976863174821E-02  1.407686968169073E-03
-6.594138649384E+00  1.389282129083175E-02  1.460223241952427E-03
-6.554138649384E+00  1.413440257986821E-02  1.515827629012834E-03
-6.514138649384E+00  1.438499449329873E-02  1.574746461199901E-03
-6.474138649384E+00  1.464511584419405E-02  1.637251428109345E-03
-6.434138649384E+00  1.491532579267279E-02  1.703642780746693E-03
-6.394138649384E+00  1.519622777699236E-02  1.774253017240097E-03
-6.354138649384E+00  1.548847389964083E-02  1.849451135109657E-03
-6.314138649384E+00  1.579276982811285E-02  1.929647551570922E-03
-6.274138649384E+00  1.610988027842790E-02  2.015299814170884E-03
-6.234138649384E+00  1.644063515894701E-02  2.106919249701404E-03
-6.194138649384E+00  1.678593646275671E-02  2.205078731056635E-03
-6.154138649384E+00  1.714676600886493E-02  2.310421781103358E-03
-6.114138649384E+00  1.752419414569078E-02  2.423673281790574E-03
-6.074138649384E+00  1.791938954470746E-02  2.545652118329510E-03
-6.034138649384E+00  1.833363022731039E-02  2.677286165837185E-03
-5.994138649384E+00  1.876831598343198E-02  2.819630123955291E-03
-5.954138649384E+00  1.922498235501497E-02  2.973886829684366E-03
-5.914138649384E+00  1.970531636935135E-02  3.141432838017937E-03
-5.874138649384E+00  2.021117421341440E-02  3.323849264557742E-03
-5.834138649384E+00  2.074460103573410E-02  3.522959148331340E-03
-5.794138649384E+00  2.130785303913264E-02  3.740872935527291E-03
-5.754138649384E+00  2.190342197317012E-02  3.980044131362112E-03
-5.714138649384E+00  2.253406202944786E-02  4.243337752228986E-03
-5.674138649384E+00  2.320281895433863E-02  4.534114980112134E-03
-5.634138649384E+00  2.391306087206034E-02  4.856338438642806E-03
-5.594138649384E+00  2.466850977643920E-02  5.214703859353382E-03
-5.554138649384E+00  2.547327177475385E-02  5.614805700017089E-03
-5.514138649384E+00  2.633186274724904E-02  6.063346662135548E-03
-5.474138649384E+00  2.724922379164066E-02  6.568404220602043E-03
-5.434138649384E+00  2.823071711915009E-02  7.139771455046667E-03
-5.394138649384E+00  2.928208708820651E-02  7.789394910694304E-03
-5.354138649384E+00  3.040936138529222E-02  8.531939123685588E-03
-5.314138649384E+00  3.161865167299373E-02  9.385515809055113E-03
-5.274138649384E+00  3.291578755704731E-02  1.037262487634964E-02
-5.234138649384E+00  3.430567643138946E-02  1.152136216023133E-02
-5.194138649384E+00  3.579121520658618E-02  1.286694909160570E-02
-5.154138649384E+00  3.737147423052607E-02  1.445361840126371E-02
-5.114138649384E+00  3.903871103994316E-02  1.633681600644034E-02
-5.074138649384E+00  4.077353710168754E-02  1.858548648929453E-02
-5.034138649384E+00  4.253726974901093E-02  2.128376822966933E-02
-4.994138649384E+00  4.426028056264438E-02  2.453050688852269E-02
-4.954138649384E+00  4.582543691501663E-02  2.843329646616770E-02
-4.914138649384E+00  4.704764113141508E-02  3.309117906106840E-02
-4.874138649384E+00  4.765607571064225E-02  3.855788003812218E-02
-4.834138649384E+00  4.729676269468797E-02  4.478039602628823E-02
-4.794138649384E+00  4.558434594640224E-02  5.152556200099073E-02
-4.754138649384E+00  4.222145496252382E-02  5.834310397429785E-02
-4.714138649384E+00  3.714489779864643E-02  6.463340559456558E-02
-4.674138649384E+00  3.058650856617039E-02  6.982383366796203E-02
-4.634138649384E+00  2.297567540738694E-02  7.352833753754896E-02
-4.594138649384E+00  1.478392848737471E-02  7.555446191690975E-02
-4.554138649384E+00  6.490303703222478E-03  7.582174357925800E-02
-4.514138649384E+00 -1.362027549826675E-03  7.439349363180574E-02
-4.474138649384E+00 -8.256827368715507E-03  7.160959873977375E-02
-4.434138649384E+00 -1.396396751918113E-02  6.804618763407011E-02
-4.394138649384E+00 -1.865530812491344E-02  6.421660911582119E-02
-4.354138649384E+00 -2.269786371834373E-02  6.029232026900029E-02
-4.314138649384E+00 -2.630793498142953E-02  5.611670838541808E-02
-4.274138649384E+00 -2.937573174298530E-02  5.148857270335824E-02
-4.234138649384E+00 -3.159977489959632E-02  4.644172131505096E-02
-4.194138649384E+00 -3.276634139082173E-02  4.127293842121438E-02
-4.154138649384E+00 -3.289722042372799E-02  3.635810421841183E-02
-4.114138649384E+00 -3.219713728294889E-02  3.197635542230255E-02
-4.074138649384E+00 -3.092947971537916E-02  2.825787978149534E-02
-4.034138649384E+00 -2.933080920946596E-02  2.521891802724312E-02
-3.994138649384E+00 -2.758285033864586E-02  2.281562954299137E-02
-3.954138649384E+00 -2.581862009842941E-02  2.098290804311559E-02
-3.914138649384E+00 -2.414040187105288E-02  1.965261591268639E-02
-3.874138649384E+00 -2.263728218280002E-02  1.875492808046191E-02
-3.834138649384E+00 -2.139497662482153E-02  1.820698512658884E-02
-3.794138649384E+00 -2.049031516326112E-02  1.789442177027736E-02
-3.754138649384E+00 -1.996334167050698E-02  1.765926112534299E-02
-3.714138649384E+00 -1.977393083451968E-02  1.731824494603740E-02
-3.674138649384E+00 -1.977986334849245E-02  1.672518472069179E-02
-3.634138649384E+00 -1.977996452601560E-02  1.584231645871192E-02
-3.594138649384E+00 -1.960560253202429E-02  1.475276051170826E-02
-3.554138649384E+00 -1.918360659215148E-02  1.359929353665862E-02
-3.514138649384E+00 -1.852985913757231E-02  1.250987610650910E-02
-3.474138649384E+00 -1.770484958629770E-02  1.156272936836588E-02
-3.434138649384E+00 -1.677473917922884E-02  1.078993376558595E-02
-3.394138649384E+00 -1.579295813383591E-02  1.019572624657217E-02
-3.354138649384E+00 -1.479776965756547E-02  9.773392549139576E-03
-3.314138649384E+00 -1.381792113353740E-02  9.515129283536664E-03
-3.274138649384E+00 -1.288027730007146E-02  9.414338019894041E-03
-3.234138649384E+00 -1.201542732424396E-02  9.462049133210282E-03
-3.194138649384E+00 -1.125890445626239E-02  9.639546483946246E-03
-3.154138649384E+00 -1.064542140891902E-02  9.909541381588661E-03
-3.114138649384E+00 -1.019341279021051E-02  1.021186128659545E-02
-3.074138649384E+00 -9.883919111666072E-03  1.047465083649979E-02
-3.034138649384E+00 -9.652185923825505E-03  1.064602529459895E-02
-2.994138649384E+00 -9.411693031331946E-03  1.072700638013107E-02
-2.954138649384E+00 -9.099417887465971E-03  1.077322909229743E-02
